#Parameters = {BeamSourceOriginX=0; BeamSourceOriginY=0; BeamSourceOriginZ=115.79674639889; D=50.003107798429; PML_offset=0; R=61.548; alpha=90; angle_20dB=11.769; beam_f=-234.79674639889; beam_w=1.94; f=120; n=1.5129; phi=0; source_dist=115.79674639889; th=5.3067463988873; th2=8; theta=0}
#"Y / mm"	"e-field (f=150) (fsGBMacro_3331027.311nm(1,0),(0.0))_Y (Y) [Re]"	"e-field (f=150) (fsGBMacro_3331027.311nm(1,0),(0.0))_Y (Y) [Im]"
#--------------------------------------------------------------------------------------------------------------------------------------------
-25.001553899214	29.414836883545	-67.658203125000
-24.967305195243	29.675020217896	-68.520523071289
-24.933056491271	29.935363769531	-69.383392333984
-24.898807787300	30.485586166382	-71.245689392090
-24.864559083328	31.035865783691	-73.108276367188
-24.830310379357	31.641033172607	-75.264060974121
-24.796061675385	32.246200561523	-77.419845581055
-24.761812971414	32.873512268066	-79.760330200195
-24.727564267442	33.514900207520	-82.218521118164
-24.693315563471	34.157508850098	-84.738853454590
-24.659066859499	34.804424285889	-87.479881286621
-24.624818155528	35.451343536377	-90.220916748047
-24.590569451556	36.073341369629	-93.179321289062
-24.556320747585	36.690151214600	-96.182350158691
-24.522072043613	37.276161193848	-99.290390014648
-24.487823339642	37.822708129883	-102.53294372559
-24.453574635670	38.363666534424	-105.78589630127
-24.419325931699	38.793121337891	-109.24630737305
-24.385077227727	39.222602844238	-112.70691680908
-24.350828523755	39.555107116699	-116.27767944336
-24.316579819784	39.816150665283	-119.92976379395
-24.282331115812	40.054340362549	-123.59812164307
-24.248082411841	40.094871520996	-127.40718078613
-24.213833707869	40.135406494141	-131.21646118164
-24.179585003898	40.003540039062	-135.10011291504
-24.145336299926	39.771114349365	-139.02726745605
-24.111087595955	39.487056732178	-142.96626281738
-24.076838891983	38.930912017822	-146.96769714355
-24.042590188012	38.374763488770	-150.96913146973
-24.008341484040	37.563343048096	-154.98852539062
-23.974092780069	36.635910034180	-159.01577758789
-23.939844076097	35.619354248047	-163.03723144531
-23.905595372126	34.278087615967	-167.03765869141
-23.871346668154	32.936817169189	-171.03807067871
-23.837097964183	31.261964797974	-174.97692871094
-23.802849260211	29.472053527832	-178.89422607422
-23.768600556240	27.553035736084	-182.77290344238
-23.734351852268	25.287206649780	-186.54782104492
-23.700103148296	23.021377563477	-190.32275390625
-23.665854444325	20.370161056519	-193.93916320801
-23.631605740353	17.611614227295	-197.51109313965
-23.597357036382	14.708175659180	-201.00608825684
-23.563108332410	11.454353332520	-204.31503295898
-23.528859628439	8.2005319595337	-207.62397766113
-23.494610924467	4.5576882362366	-210.67568969727
-23.460362220496	0.81927657127380	-213.66450500488
-23.426113516524	-3.0632467269897	-216.53620910645
-23.391864812553	-7.2614088058472	-219.15214538574
-23.357616108581	-11.459570884705	-221.76806640625
-23.323367404610	-16.005161285400	-224.03840637207
-23.289118700638	-20.625011444092	-226.23526000977
-23.254869996667	-25.368785858154	-228.27888488770
-23.220621292695	-30.359027862549	-230.01866149902
-23.186372588724	-35.349266052246	-231.75843811035
-23.152123884752	-40.600215911865	-233.08833312988
-23.117875180781	-45.898742675781	-234.34342956543
-23.083626476809	-51.282035827637	-235.42008972168
-23.049377772837	-56.817642211914	-236.17414855957
-23.015129068866	-62.353244781494	-236.92820739746
-22.980880364894	-68.027427673340	-237.24424743652
-22.946631660923	-73.722892761230	-237.49301147461
-22.912382956951	-79.448463439941	-237.55406188965
-22.878134252980	-85.222808837891	-237.30560302734
-22.843885549008	-90.997161865234	-237.05714416504
-22.809636845037	-96.770111083984	-236.38601684570
-22.775388141065	-102.54288482666	-235.66168212891
-22.741139437094	-108.28337860107	-234.75523376465
-22.706890733122	-113.97780609131	-233.58705139160
-22.672642029151	-119.67191314697	-232.41891479492
-22.638393325179	-125.22759246826	-230.87458801270
-22.604144621208	-130.77323913574	-229.30300903320
-22.569895917236	-136.22386169434	-227.56974792480
-22.535647213265	-141.56077575684	-225.64245605469
-22.501398509293	-146.89739990234	-223.71525573730
-22.467149805322	-151.98187255859	-221.49203491211
-22.432901101350	-157.06037902832	-219.26181030273
-22.398652397378	-161.99256896973	-216.90757751465
-22.364403693407	-166.77810668945	-214.42869567871
-22.330154989435	-171.55671691895	-211.94584655762
-22.295906285464	-176.02751159668	-209.27255249023
-22.261657581492	-180.49832153320	-206.59925842285
-22.227408877521	-184.79467773438	-203.84762573242
-22.193160173549	-188.94442749023	-201.03015136719
-22.158911469578	-193.07379150391	-198.20594787598
-22.124662765606	-196.90910339355	-195.28851318359
-22.090414061635	-200.74441528320	-192.37109375000
-22.056165357663	-204.40573120117	-189.41612243652
-22.021916653692	-207.94496154785	-186.43482971191
-21.987667949720	-211.45494079590	-183.44921875000
-21.953419245749	-214.72607421875	-180.43016052246
-21.919170541777	-217.99720764160	-177.41110229492
-21.884921837806	-221.12026977539	-174.37797546387
-21.850673133834	-224.15715026855	-171.33665466309
-21.816424429863	-227.16352844238	-168.29267883301
-21.782175725891	-230.00283813477	-165.23399353027
-21.747927021919	-232.84197998047	-162.17547607422
-21.713678317948	-235.57170104980	-159.10165405273
-21.679429613976	-238.24905395508	-156.02050781250
-21.645180910005	-240.90068054199	-152.93220520020
-21.610932206033	-243.44853210449	-149.81488037109
-21.576683502062	-245.99624633789	-146.69772338867
-21.542434798090	-248.46530151367	-143.53883361816
-21.508186094119	-250.90820312500	-140.36607360840
-21.473937390147	-253.32363891602	-137.16923522949
-21.439688686176	-255.67570495605	-133.91690063477
-21.405439982204	-258.02789306641	-130.66438293457
-21.371191278233	-260.30438232422	-127.32253265381
-21.336942574261	-262.56799316406	-123.96544647217
-21.302693870290	-264.79190063477	-120.55628967285
-21.268445166318	-266.95779418945	-117.07109069824
-21.234196462347	-269.12377929688	-113.58570098877
-21.199947758375	-271.17520141602	-109.95894622803
-21.165699054404	-273.22167968750	-106.32606506348
-21.131450350432	-275.19061279297	-102.61096954346
-21.097201646460	-277.08523559570	-98.817031860352
-21.062952942489	-278.96783447266	-95.012542724609
-21.028704238517	-280.66903686523	-91.053207397461
-20.994455534546	-282.37020874023	-87.093879699707
-20.960206830574	-283.92333984375	-83.035980224609
-20.925958126603	-285.38357543945	-78.916236877441
-20.891709422631	-286.79534912109	-74.772361755371
-20.857460718660	-287.96456909180	-70.507423400879
-20.823212014688	-289.13372802734	-66.242721557617
-20.788963310717	-290.05874633789	-61.892436981201
-20.754714606745	-290.88809204102	-57.508617401123
-20.720465902774	-291.61380004883	-53.102104187012
-20.686217198802	-292.05984497070	-48.634101867676
-20.651968494831	-292.50585937500	-44.166351318359
-20.617719790859	-292.60855102539	-39.665149688721
-20.583471086888	-292.63711547852	-35.156726837158
-20.549222382916	-292.50128173828	-30.651557922363
-20.514973678945	-292.09078979492	-26.151828765869
-20.480724974973	-291.68026733398	-21.651847839355
-20.446476271001	-290.85742187500	-17.209304809570
-20.412227567030	-290.00186157227	-12.771304130554
-20.377978863058	-288.93905639648	-8.3887529373169
-20.343730159087	-287.65023803711	-4.0666599273682
-20.309481455115	-286.34909057617	0.25053501129150
-20.275232751144	-284.65689086914	4.4039402008057
-20.240984047172	-282.96469116211	8.5573463439941
-20.206735343201	-281.06271362305	12.581802368164
-20.172486639229	-279.01031494141	16.513807296753
-20.138237935258	-276.94244384766	20.432153701782
-20.103989231286	-274.59255981445	24.095066070557
-20.069740527315	-272.24267578125	27.757978439331
-20.035491823343	-269.78247070312	31.262481689453
-20.001243119372	-267.22067260742	34.621147155762
-19.966994415400	-264.65890502930	37.979816436768
-19.932745711429	-261.98382568359	41.013946533203
-19.898497007457	-259.30770874023	44.044544219971
-19.864248303485	-256.62713623047	46.919261932373
-19.829999599514	-253.94122314453	49.610176086426
-19.795750895542	-251.25532531738	52.301086425781
-19.761502191571	-248.65893554688	54.677967071533
-19.727253487599	-246.06965637207	57.030334472656
-19.693004783628	-243.55947875977	59.253620147705
-19.658756079656	-241.16941833496	61.280948638916
-19.624507375685	-238.77934265137	63.308280944824
-19.590258671713	-236.64270019531	65.075965881348
-19.556009967742	-234.54508972168	66.803657531738
-19.521761263770	-232.57228088379	68.442756652832
-19.487512559799	-230.84661865234	69.906478881836
-19.453263855827	-229.12095642090	71.370193481445
-19.419015151856	-227.74334716797	72.657203674316
-19.384766447884	-226.45027160645	73.901336669922
-19.350517743913	-225.28640747070	75.099212646484
-19.316269039941	-224.46533203125	76.174545288086
-19.282020335970	-223.64425659180	77.249870300293
-19.247771631998	-223.18518066406	78.241020202637
-19.213522928026	-222.85148620605	79.203018188477
-19.179274224055	-222.61915588379	80.153152465820
-19.145025520083	-222.76388549805	81.058906555176
-19.110776816112	-222.90861511230	81.964660644531
-19.076528112140	-223.35688781738	82.871086120605
-19.042279408169	-223.94735717773	83.777832031250
-19.008030704197	-224.59649658203	84.693000793457
-18.973782000226	-225.57756042480	85.655532836914
-18.939533296254	-226.55862426758	86.618057250977
-18.905284592283	-227.73519897461	87.646331787109
-18.871035888311	-229.03199768066	88.715042114258
-18.836787184340	-230.34878540039	89.797126770020
-18.802538480368	-231.87084960938	91.016471862793
-18.768289776397	-233.39289855957	92.235824584961
-18.734041072425	-234.98342895508	93.559753417969
-18.699792368454	-236.62829589844	94.966705322266
-18.665543664482	-238.27352905273	96.379386901855
-18.631294960511	-239.93185424805	98.002426147461
-18.597046256539	-241.59007263184	99.625381469727
-18.562797552567	-243.20126342773	101.36322784424
-18.528548848596	-244.76458740234	103.21795654297
-18.494300144624	-246.32006835938	105.08214569092
-18.460051440653	-247.68609619141	107.17498016357
-18.425802736681	-249.05204772949	109.26769256592
-18.391554032710	-250.24684143066	111.49982452393
-18.357305328738	-251.31962585449	113.83131408691
-18.323056624767	-252.34400939941	116.19236755371
-18.288807920795	-253.03831481934	118.75495910645
-18.254559216824	-253.73268127441	121.31769561768
-18.220310512852	-254.12475585938	124.02519226074
-18.186061808881	-254.36932373047	126.80340576172
-18.151813104909	-254.50483703613	129.62330627441
-18.117564400938	-254.24467468262	132.59440612793
-18.083315696966	-253.98449707031	135.56567382812
-18.049066992995	-253.31286621094	138.66117858887
-18.014818289023	-252.51144409180	141.79592895508
-17.980569585052	-251.54035949707	144.96989440918
-17.946320881080	-250.18132019043	148.23352050781
-17.912072177108	-248.82220458984	151.49732971191
-17.877823473137	-246.99377441406	154.83732604980
-17.843574769165	-245.08145141602	158.19097900391
-17.809326065194	-242.96148681641	161.56332397461
-17.775077361222	-240.52005004883	164.96466064453
-17.740828657251	-238.07859802246	168.36598205566
-17.706579953279	-235.18261718750	171.77062988281
-17.672331249308	-232.25595092773	175.17530822754
-17.638082545336	-229.12577819824	178.55982971191
-17.603833841365	-225.77561950684	181.92256164551
-17.569585137393	-222.41694641113	185.28314208984
-17.535336433422	-218.71966552734	188.55894470215
-17.501087729450	-215.02258300781	191.83456420898
-17.466839025479	-211.17892456055	195.03573608398
-17.432590321507	-207.22407531738	198.18045043945
-17.398341617536	-203.25117492676	201.30575561523
-17.364092913564	-199.13627624512	204.27812194824
-17.329844209593	-195.02113342285	207.25065612793
-17.295595505621	-190.86817932129	210.08494567871
-17.261346801649	-186.69535827637	212.84710693359
-17.227098097678	-182.53143310547	215.56033325195
-17.192849393706	-178.40290832520	218.07894897461
-17.158600689735	-174.27413940430	220.59771728516
-17.124351985763	-170.25177001953	222.91426086426
-17.090103281792	-166.26576232910	225.16163635254
-17.055854577820	-162.34684753418	227.32453918457
-17.021605873849	-158.59303283691	229.27969360352
-16.987357169877	-154.83920288086	231.23483276367
-16.953108465906	-151.34262084961	232.93524169922
-16.918859761934	-147.89781188965	234.58451843262
-16.884611057963	-144.59240722656	236.11642456055
-16.850362353991	-141.51721191406	237.45452880859
-16.816113650020	-138.44201660156	238.79261779785
-16.781864946048	-135.74591064453	239.84762573242
-16.747616242077	-133.08236694336	240.87837219238
-16.713367538105	-130.62103271484	241.77169799805
-16.679118834134	-128.39201354980	242.50714111328
-16.644870130162	-126.16298675537	243.24259948730
-16.610621426190	-124.36537933350	243.70709228516
-16.576372722219	-122.57174682617	244.16911315918
-16.542124018247	-120.99127960205	244.50654602051
-16.507875314276	-119.61011505127	244.72749328613
-16.473626610304	-118.24464416504	244.93991088867
-16.439377906333	-117.23233795166	244.96083068848
-16.405129202361	-116.21997833252	244.98175048828
-16.370880498390	-115.38245391846	244.91683959961
-16.336631794418	-114.67767333984	244.78674316406
-16.302383090447	-113.99463653564	244.64756774902
-16.268134386475	-113.52099609375	244.42103576660
-16.233885682504	-113.04732513428	244.19450378418
-16.199636978532	-112.66305541992	243.94480895996
-16.165388274561	-112.33359527588	243.68087768555
-16.131139570589	-112.01168823242	243.42031860352
-16.096890866618	-111.73412322998	243.17941284180
-16.062642162646	-111.45655822754	242.93850708008
-16.028393458675	-111.15141296387	242.75273132324
-15.994144754703	-110.83277893066	242.59397888184
-15.959896050731	-110.48868560791	242.46228027344
-15.925647346760	-110.04086303711	242.44081115723
-15.891398642788	-109.59302520752	242.41935729980
-15.857149938817	-108.99502563477	242.53179931641
-15.822901234845	-108.33940887451	242.69560241699
-15.788652530874	-107.61613464355	242.91493225098
-15.754403826902	-106.68826293945	243.30215454102
-15.720155122931	-105.76036834717	243.68939208984
-15.685906418959	-104.58506774902	244.26983642578
-15.651657714988	-103.33764648438	244.90661621094
-15.617409011016	-101.98608398438	245.62179565430
-15.583160307045	-100.39168548584	246.51979064941
-15.548911603073	-98.797279357910	247.41780090332
-15.514662899102	-96.911254882812	248.52857971191
-15.480414195130	-94.963760375977	249.68421936035
-15.446165491159	-92.897377014160	250.92361450195
-15.411916787187	-90.611839294434	252.31739807129
-15.377668083215	-88.326309204102	253.71116638184
-15.343419379244	-85.774795532227	255.28346252441
-15.309170675272	-83.186157226562	256.88067626953
-15.274921971301	-80.496505737305	258.54028320312
-15.240673267329	-77.657157897949	260.29232788086
-15.206424563358	-74.817886352539	262.04431152344
-15.172175859386	-71.807830810547	263.88412475586
-15.137927155415	-68.784767150879	265.73065185547
-15.103678451443	-65.713096618652	267.58883666992
-15.069429747472	-62.583023071289	269.46112060547
-15.035181043500	-59.453029632568	271.33334350586
-15.000932339529	-56.298374176025	273.15841674805
-14.966683635557	-53.143135070801	274.98257446289
-14.932434931586	-50.016887664795	276.74475097656
-14.898186227614	-46.918853759766	278.44641113281
-14.863937523643	-43.825008392334	280.14199829102
-14.829688819671	-40.861515045166	281.65032958984
-14.795440115700	-37.897933959961	283.15872192383
-14.761191411728	-35.046981811523	284.52416992188
-14.726942707756	-32.285346984863	285.77615356445
-14.692694003785	-29.545381546021	287.00201416016
-14.658445299813	-27.044971466064	287.93957519531
-14.624196595842	-24.544563293457	288.87713623047
-14.589947891870	-22.202262878418	289.62850952148
-14.555699187899	-20.006097793579	290.20791625977
-14.521450483927	-17.809869766235	290.78735351562
-14.487201779956	-15.921627044678	291.00543212891
-14.452953075984	-14.047358512878	291.20715332031
-14.418704372013	-12.297755241394	291.26080322266
-14.384455668041	-10.740618705750	291.08599853516
-14.350206964070	-9.1834821701050	290.91119384766
-14.315958260098	-7.8670587539673	290.44250488281
-14.281709556127	-6.6000094413757	289.91360473633
-14.247460852155	-5.3976659774780	289.30154418945
-14.213212148184	-4.3733248710632	288.46063232422
-14.178963444212	-3.3490118980408	287.61978149414
-14.144714740241	-2.4500837326050	286.60140991211
-14.110466036269	-1.6040983200073	285.50820922852
-14.076217332297	-0.77226471900940	284.38995361328
-14.041968628326	-0.027397513389587	283.11770629883
-14.007719924354	0.71744894981384	281.84548950195
-13.973471220383	1.4527643918991	280.51763916016
-13.939222516411	2.1811015605927	279.14883422852
-13.904973812440	2.9103405475616	277.77993774414
-13.870725108468	3.7082386016846	276.40075683594
-13.836476404497	4.5061144828796	275.02160644531
-13.802227700525	5.3719682693481	273.67572021484
-13.767978996554	6.3209557533264	272.37048339844
-13.733730292582	7.2699165344238	271.06527709961
-13.699481588611	8.4161376953125	269.89392089844
-13.665232884639	9.5876178741455	268.73962402344
-13.630984180668	10.849279403687	267.65496826172
-13.596735476696	12.299817085266	266.71600341797
-13.562486772725	13.750313758850	265.77703857422
-13.528238068753	15.441118240356	265.03811645508
-13.493989364782	17.207881927490	264.36233520508
-13.459740660810	19.039741516113	263.74392700195
-13.425491956838	21.137771606445	263.35983276367
-13.391243252867	23.235858917236	262.97570800781
-13.356994548895	25.538757324219	262.78063964844
-13.322745844924	27.960283279419	262.69506835938
-13.288497140952	30.402355194092	262.62936401367
-13.254248436981	33.116546630859	262.82785034180
-13.219999733009	35.830818176270	263.02633666992
-13.185751029038	38.667228698730	263.35110473633
-13.151502325066	41.622646331787	263.79885864258
-13.117253621095	44.578147888184	264.24661254883
-13.083004917123	47.696239471436	264.88021850586
-13.048756213152	50.824108123779	265.52499389648
-13.014507509180	53.986576080322	266.21966552734
-12.980258805209	57.205268859863	266.99578857422
-12.946010101237	60.424053192139	267.77191162109
-12.911761397266	63.644474029541	268.59439086914
-12.877512693294	66.865280151367	269.42727661133
-12.843263989323	70.063873291016	270.25491333008
-12.809015285351	73.196624755859	271.06689453125
-12.774766581379	76.329376220703	271.87887573242
-12.740517877408	79.342720031738	272.62457275391
-12.706269173436	82.302291870117	273.34045410156
-12.672020469465	85.230461120605	274.03558349609
-12.637771765493	87.942153930664	274.58767700195
-12.603523061522	90.653778076172	275.13977050781
-12.569274357550	93.192329406738	275.56838989258
-12.535025653579	95.596595764160	275.90124511719
-12.500776949607	98.000869750977	276.23413085938
-12.466528245636	100.06072235107	276.31088256836
-12.432279541664	102.12051391602	276.38760375977
-12.398030837693	104.00797271729	276.33282470703
-12.363782133721	105.70759582520	276.13461303711
-12.329533429750	107.40717315674	275.93643188477
-12.295284725778	108.76531219482	275.47277832031
-12.261036021807	110.10800933838	274.99719238281
-12.226787317835	111.30605316162	274.40780639648
-12.192538613864	112.31645202637	273.67077636719
-12.158289909892	113.32683563232	272.93377685547
-12.124041205920	114.07311248779	271.98699951172
-12.089792501949	114.79447937012	271.02038574219
-12.055543797977	115.42575073242	269.98150634766
-12.021295094006	115.91741180420	268.83053588867
