#Parameters = {BeamSourceOriginX=0; BeamSourceOriginY=0; BeamSourceOriginZ=115.79674639889; D=50.003107798429; PML_offset=0; R=61.548; alpha=90; angle_20dB=11.769; beam_f=-234.79674639889; beam_w=1.94; f=120; n=1.5129; phi=0; source_dist=115.79674639889; th=5.3067463988873; th2=8; theta=0}
#"X / mm"	"e-field (f=150) (fsGBMacro_3331027.311nm(1,0),(0.0))_Y (X) [Re]"	"e-field (f=150) (fsGBMacro_3331027.311nm(1,0),(0.0))_Y (X) [Im]"
#--------------------------------------------------------------------------------------------------------------------------------------------
-25.001553899214	40.103332519531	83.017730712891
-24.967305195243	42.750789642334	81.578704833984
-24.933056491271	45.398258209229	80.139205932617
-24.898807787300	47.782680511475	77.917800903320
-24.864559083328	50.166912078857	75.695457458496
-24.830310379357	52.358963012695	72.538558959961
-24.796061675385	54.551010131836	69.381652832031
-24.761812971414	56.685798645020	65.558219909668
-24.727564267442	58.783840179443	61.309616088867
-24.693315563471	60.882564544678	56.812557220459
-24.659066859499	62.983718872070	51.433097839355
-24.624818155528	65.084869384766	46.053634643555
-24.590569451556	67.247253417969	39.732719421387
-24.556320747585	69.422111511230	33.218082427979
-24.522072043613	71.645889282227	26.219280242920
-24.487823339642	73.932327270508	18.600261688232
-24.453574635670	76.224227905273	10.930833816528
-24.419325931699	78.624961853027	2.2556495666504
-24.385077227727	81.025825500488	-6.4200177192688
-24.350828523755	83.468353271484	-15.652292251587
-24.316579819784	85.941688537598	-25.295173645020
-24.282331115812	88.413276672363	-35.023769378662
-24.248082411841	90.869812011719	-45.493644714355
-24.213833707869	93.326484680176	-55.964099884033
-24.179585003898	95.689414978027	-66.848838806152
-24.145336299926	97.997749328613	-77.975570678711
-24.111087595955	100.25540161133	-89.175781250000
-24.076838891983	102.24597167969	-100.76320648193
-24.042590188012	104.23654937744	-112.35062408447
-24.008341484040	105.87286376953	-124.10594940186
-23.974092780069	107.34796905518	-135.93667602539
-23.939844076097	108.66569519043	-147.76994323730
-23.905595372126	109.41005706787	-159.61253356934
-23.871346668154	110.15441131592	-171.45510864258
-23.837097964183	110.19231414795	-183.12690734863
-23.802849260211	109.98628234863	-194.73884582520
-23.768600556240	109.46468353271	-206.22134399414
-23.734351852268	108.09539794922	-217.35610961914
-23.700103148296	106.72611236572	-228.49089050293
-23.665854444325	104.29888916016	-239.06036376953
-23.631605740353	101.57669067383	-249.47137451172
-23.597357036382	98.416641235352	-259.60165405273
-23.563108332410	94.197738647461	-269.05297851562
-23.528859628439	89.978843688965	-278.50430297852
-23.494610924467	84.486282348633	-287.00869750977
-23.460362220496	78.681190490723	-295.28143310547
-23.426113516524	72.372009277344	-303.12265014648
-23.391864812553	64.959648132324	-310.02108764648
-23.357616108581	57.547283172607	-316.91949462891
-23.323367404610	48.852375030518	-322.54794311523
-23.289118700638	39.883781433105	-327.90618896484
-23.254869996667	30.438079833984	-332.70465087891
-23.220621292695	20.044452667236	-336.39273071289
-23.186372588724	9.6508293151855	-340.08078002930
-23.152123884752	-1.7730789184570	-342.28219604492
-23.117875180781	-13.384995460510	-344.21234130859
-23.083626476809	-25.331974029541	-345.50122070312
-23.049377772837	-37.882431030273	-345.63146972656
-23.015129068866	-50.432888031006	-345.76168823242
-22.980880364894	-63.502372741699	-344.33932495117
-22.946631660923	-76.651550292969	-342.67858886719
-22.912382956951	-89.881103515625	-340.36431884766
-22.878134252980	-103.24121093750	-336.97296142578
-22.843885549008	-116.60131835938	-333.58163452148
-22.809636845037	-129.78103637695	-328.75762939453
-22.775388141065	-142.93804931641	-323.75323486328
-22.741139437094	-155.83990478516	-318.15502929688
-22.706890733122	-168.37579345703	-311.70315551758
-22.672642029151	-180.91098022461	-305.25164794922
-22.638393325179	-192.49079895020	-297.64535522461
-22.604144621208	-204.00148010254	-289.95544433594
-22.569895917236	-214.87997436523	-281.81585693359
-22.535647213265	-225.00077819824	-273.13641357422
-22.501398509293	-235.12101745605	-264.45742797852
-22.467149805322	-243.58375549316	-255.08718872070
-22.432901101350	-252.00727844238	-245.70059204102
-22.398652397378	-259.46972656250	-236.11180114746
-22.364403693407	-265.96762084961	-226.31945800781
-22.330154989435	-272.42135620117	-216.52572631836
-22.295906285464	-276.85574340820	-206.64196777344
-22.261657581492	-281.29016113281	-196.75822448730
-22.227408877521	-284.58517456055	-186.99235534668
-22.193160173549	-286.92254638672	-177.32553100586
-22.158911469578	-289.12722778320	-167.69160461426
-22.124662765606	-289.43856811523	-158.53454589844
-22.090414061635	-289.74990844727	-149.37748718262
-22.056165357663	-288.97479248047	-140.67456054688
-22.021916653692	-287.43753051758	-132.29019165039
-21.987667949720	-285.72692871094	-124.01424407959
-21.953419245749	-282.61294555664	-116.62084960938
-21.919170541777	-279.49899291992	-109.22745513916
-21.884921837806	-275.61236572266	-102.56547546387
-21.850673133834	-271.27597045898	-96.329292297363
-21.816424429863	-266.81515502930	-90.287536621094
-21.782175725891	-261.67184448242	-85.311843872070
-21.747927021919	-256.52880859375	-80.336433410645
-21.713678317948	-251.14729309082	-76.238029479980
-21.679429613976	-245.65168762207	-72.559242248535
-21.645180910005	-240.17822265625	-69.129768371582
-21.610932206033	-234.79389953613	-66.706558227539
-21.576683502062	-229.40986633301	-64.283477783203
-21.542434798090	-224.43728637695	-62.723609924316
-21.508186094119	-219.60147094727	-61.450618743896
-21.473937390147	-215.05076599121	-60.477718353271
-21.439688686176	-211.15737915039	-60.196712493896
-21.405439982204	-207.26377868652	-59.915687561035
-21.371191278233	-204.45521545410	-60.303859710693
-21.336942574261	-201.83132934570	-60.805950164795
-21.302693870290	-199.82095336914	-61.525268554688
-21.268445166318	-198.70632934570	-62.561759948730
-21.234196462347	-197.59165954590	-63.598308563232
-21.199947758375	-198.05513000488	-64.884506225586
-21.165699054404	-198.58691406250	-66.181510925293
-21.131450350432	-199.97177124023	-67.466560363770
-21.097201646460	-202.17472839355	-68.740142822266
-21.062952942489	-204.47673034668	-69.994995117188
-21.028704238517	-208.26124572754	-70.967918395996
-20.994455534546	-212.04577636719	-71.940849304199
-20.960206830574	-216.68011474609	-72.572097778320
-20.925958126603	-221.84757995605	-72.988998413086
-20.891709422631	-227.19589233398	-73.277145385742
-20.857460718660	-233.45013427734	-72.920562744141
-20.823212014688	-239.70404052734	-72.564002990723
-20.788963310717	-246.46937561035	-71.531227111816
-20.754714606745	-253.43510437012	-70.233489990234
-20.720465902774	-260.47677612305	-68.652244567871
-20.686217198802	-267.72372436523	-66.306045532227
-20.651968494831	-274.97027587891	-63.959976196289
-20.617719790859	-282.07128906250	-60.717155456543
-20.583471086888	-289.14086914062	-57.280750274658
-20.549222382916	-295.97268676758	-53.446510314941
-20.514973678945	-302.40731811523	-48.947555541992
-20.480724974973	-308.84228515625	-44.448345184326
-20.446476271001	-314.29446411133	-39.052742004395
-20.412227567030	-319.66860961914	-33.585929870605
-20.377978863058	-324.35980224609	-27.730907440186
-20.343730159087	-328.30636596680	-21.452602386475
-20.309481455115	-332.20098876953	-15.155590057373
-20.275232751144	-334.43591308594	-8.2747097015381
-20.240984047172	-336.67086791992	-1.3938302993774
-20.206735343201	-337.78390502930	5.6962051391602
-20.172486639229	-338.09255981445	12.936197280884
-20.138237935258	-338.29663085938	20.180322647095
-20.103989231286	-336.57714843750	27.492635726929
-20.069740527315	-334.85766601562	34.804946899414
-20.035491823343	-332.11425781250	41.996707916260
-20.001243119372	-328.42825317383	49.077480316162
-19.966994415400	-324.74221801758	56.158252716064
-19.932745711429	-319.29745483398	62.719848632812
-19.898497007457	-313.83480834961	69.275703430176
-19.864248303485	-307.69741821289	75.469184875488
-19.829999599514	-300.76440429688	81.235397338867
-19.795750895542	-293.83139038086	87.001602172852
-19.761502191571	-285.90661621094	91.831085205078
-19.727253487599	-277.90533447266	96.587593078613
-19.693004783628	-269.66653442383	100.87933349609
-19.658756079656	-261.06713867188	104.46553802490
-19.624507375685	-252.46774291992	108.05175018311
-19.590258671713	-243.79110717773	110.54510498047
-19.556009967742	-235.10206604004	112.86981964111
-19.521761263770	-226.55477905273	114.76565551758
-19.487512559799	-218.28749084473	115.81182098389
-19.453263855827	-210.02020263672	116.85797882080
-19.419015151856	-202.47897338867	116.92394256592
-19.384766447884	-195.11380004883	116.75164794922
-19.350517743913	-188.11082458496	116.28214263916
-19.316269039941	-182.06799316406	115.02381134033
-19.282020335970	-176.02517700195	113.76548004150
-19.247771631998	-171.20922851562	111.84588623047
-19.213522928026	-166.81819152832	109.69727325439
-19.179274224055	-162.82366943359	107.41251373291
-19.145025520083	-160.30496215820	104.62194824219
-19.110776816112	-157.78625488281	101.83138275146
-19.076528112140	-156.60906982422	98.796897888184
-19.042279408169	-156.06030273438	95.648155212402
-19.008030704197	-155.80273437500	92.491088867188
-18.973782000226	-157.19372558594	89.288116455078
-18.939533296254	-158.58471679688	86.085144042969
-18.905284592283	-161.08160400391	83.036087036133
-18.871035888311	-164.25849914551	80.081672668457
-18.836787184340	-167.56988525391	77.174285888672
-18.802538480368	-172.26647949219	74.753845214844
-18.768289776397	-176.96307373047	72.333404541016
-18.734041072425	-182.30685424805	70.349914550781
-18.699792368454	-188.16435241699	68.713272094727
-18.665543664482	-194.04132080078	67.102760314941
-18.631294960511	-200.63160705566	66.449867248535
-18.597046256539	-207.22152709961	65.797012329102
-18.562797552567	-213.94049072266	65.692497253418
-18.528548848596	-220.79072570801	66.145812988281
-18.494300144624	-227.63323974609	66.645156860352
-18.460051440653	-234.28956604004	68.255996704102
-18.425802736681	-240.94552612305	69.866752624512
-18.391554032710	-247.23544311523	72.154624938965
-18.357305328738	-253.26446533203	74.925079345703
-18.323056624767	-259.16329956055	77.836181640625
-18.288807920795	-264.17459106445	81.706062316895
-18.254559216824	-269.18615722656	85.576164245605
-18.220310512852	-273.29479980469	90.104820251465
-18.186061808881	-276.96292114258	94.954986572266
-18.151813104909	-280.28808593750	99.980323791504
-18.117564400938	-282.36895751953	105.64114379883
-18.083315696966	-284.44995117188	111.30228424072
-18.049066992995	-285.21014404297	117.42084503174
-18.014818289023	-285.55371093750	123.68379974365
-17.980569585052	-285.35372924805	130.05859375000
-17.946320881080	-283.91070556641	136.68913269043
-17.912072177108	-282.46759033203	143.32005310059
-17.877823473137	-279.55252075195	150.05278015137
-17.843574769165	-276.37435913086	156.80378723145
-17.809326065194	-272.57226562500	163.50590515137
-17.775077361222	-267.80416870117	170.13232421875
-17.740828657251	-263.03604125977	176.75874328613
-17.706579953279	-256.99444580078	183.05322265625
-17.672331249308	-250.86680603027	189.32482910156
-17.638082545336	-244.22895812988	195.32826232910
-17.603833841365	-237.03964233398	201.04185485840
-17.569585137393	-229.83277893066	206.73767089844
-17.535336433422	-221.92822265625	211.72842407227
-17.501087729450	-214.02409362793	216.71890258789
-17.466839025479	-205.92720031738	221.22850036621
-17.432590321507	-197.68409729004	225.37333679199
-17.398341617536	-189.44541931152	229.41453552246
-17.364092913564	-181.24168395996	232.63998413086
-17.329844209593	-173.03749084473	235.86561584473
-17.295595505621	-165.09880065918	238.47151184082
-17.261346801649	-157.29856872559	240.75370788574
-17.227098097678	-149.64471435547	242.85098266602
-17.192849393706	-142.57313537598	244.21267700195
-17.158600689735	-135.50115966797	245.57444763184
-17.124351985763	-129.17352294922	246.30111694336
-17.090103281792	-123.10053253174	246.81042480469
-17.055854577820	-117.37444305420	247.10337829590
-17.021605873849	-112.50162506104	246.86418151855
-16.987357169877	-107.62880706787	246.62496948242
-16.953108465906	-103.85722351074	245.87367248535
-16.918859761934	-100.30651092529	245.01982116699
-16.884611057963	-97.269104003906	243.99195861816
-16.850362353991	-95.079216003418	242.67674255371
-16.816113650020	-92.889335632324	241.36154174805
-16.781864946048	-91.913528442383	239.77258300781
-16.747616242077	-91.041542053223	238.16032409668
-16.713367538105	-90.728553771973	236.48677062988
-16.679118834134	-91.057777404785	234.74279785156
-16.644870130162	-91.387001037598	232.99880981445
-16.610621426190	-92.721923828125	231.28269958496
-16.576372722219	-94.065818786621	229.56692504883
-16.542124018247	-95.807685852051	227.94052124023
-16.507875314276	-97.921638488770	226.39765930176
-16.473626610304	-100.05632781982	224.86740112305
-16.439377906333	-102.65774536133	223.62097167969
-16.405129202361	-105.25930786133	222.37446594238
-16.370880498390	-107.96695709229	221.35130310059
-16.336631794418	-110.75530242920	220.49769592285
-16.302383090447	-113.53320312500	219.68736267090
-16.268134386475	-116.21049499512	219.29357910156
-16.233885682504	-118.88794708252	218.89978027344
-16.199636978532	-121.32350158691	218.81362915039
-16.165388274561	-123.61079406738	218.91615295410
-16.131139570589	-125.80620574951	219.09167480469
-16.096890866618	-127.46235656738	219.69572448730
-16.062642162646	-129.11851501465	220.29977416992
-16.028393458675	-130.22402954102	221.22523498535
-15.994144754703	-131.05981445312	222.30802917480
-15.959896050731	-131.70849609375	223.47581481934
-15.925647346760	-131.59480285645	224.98986816406
-15.891398642788	-131.48109436035	226.50396728516
-15.857149938817	-130.63619995117	228.27954101562
-15.822901234845	-129.51081848145	230.15544128418
-15.788652530874	-128.13563537598	232.10009765625
-15.754403826902	-126.00508117676	234.25273132324
-15.720155122931	-123.87446594238	236.40544128418
-15.685906418959	-121.02019500732	238.69879150391
-15.651657714988	-117.95497894287	241.03314208984
-15.617409011016	-114.64756011963	243.39193725586
-15.583160307045	-110.77542114258	245.80746459961
-15.548911603073	-106.90328216553	248.22299194336
-15.514662899102	-102.50738525391	250.62385559082
-15.480414195130	-98.001129150391	253.02153015137
-15.446165491159	-93.344345092773	255.38035583496
-15.411916787187	-88.410247802734	257.66729736328
-15.377668083215	-83.476150512695	259.95425415039
-15.343419379244	-78.362098693848	262.07125854492
-15.309170675272	-73.223037719727	264.16445922852
-15.274921971301	-68.091926574707	266.15246582031
-15.240673267329	-62.972454071045	267.98471069336
-15.206424563358	-57.853126525879	269.81692504883
-15.172175859386	-52.948196411133	271.36004638672
-15.137927155415	-48.059864044189	272.88098144531
-15.103678451443	-43.360733032227	274.24603271484
-15.069429747472	-38.888561248779	275.42404174805
-15.035181043500	-34.416515350342	276.60202026367
-15.000932339529	-30.498060226440	277.43356323242
-14.966683635557	-26.590644836426	278.25817871094
-14.932434931586	-23.021659851074	278.90765380859
-14.898186227614	-19.782991409302	279.38616943359
-14.863937523643	-16.567195892334	279.85449218750
-14.829688819671	-14.051881790161	280.01202392578
-14.795440115700	-11.536499023438	280.16958618164
-14.761191411728	-9.4276227951050	280.17019653320
-14.726942707756	-7.6413412094116	280.04626464844
-14.692694003785	-5.9132251739502	279.90274047852
-14.658445299813	-4.8263735771179	279.54354858398
-14.624196595842	-3.7395219802856	279.18432617188
-14.589947891870	-2.9761667251587	278.73266601562
-14.555699187899	-2.5115902423859	278.19561767578
-14.521450483927	-2.0470006465912	277.65856933594
-14.487201779956	-2.0560269355774	277.01254272461
-14.452953075984	-2.0865464210510	276.36160278320
-14.418704372013	-2.2515389919281	275.69030761719
-14.384455668041	-2.6239950656891	274.98770141602
-14.350206964070	-2.9964509010315	274.28509521484
-14.315958260098	-3.5136017799377	273.58493041992
-14.281709556127	-4.0603880882263	272.88528442383
-14.247460852155	-4.6084623336792	272.19845581055
-14.213212148184	-5.1600975990295	271.54684448242
-14.178963444212	-5.7117171287537	270.89523315430
-14.144714740241	-6.1534118652344	270.30035400391
-14.110466036269	-6.5487051010132	269.72940063477
-14.076217332297	-6.9023065567017	269.17236328125
-14.041968628326	-6.9996447563171	268.70083618164
-14.007719924354	-7.0969800949097	268.22933959961
-13.973471220383	-6.9561882019043	267.81835937500
-13.939222516411	-6.6405334472656	267.45184326172
-13.904973812440	-6.3183197975159	267.08663940430
-13.870725108468	-5.5071616172791	266.81820678711
-13.836476404497	-4.6960263252258	266.54977416992
-13.802227700525	-3.6408045291901	266.31808471680
-13.767978996554	-2.2871370315552	266.13125610352
-13.733730292582	-0.93350744247437	265.94442749023
-13.699481588611	0.91072773933411	265.81002807617
-13.665232884639	2.8177595138550	265.68231201172
-13.630984180668	4.8957114219666	265.56509399414
-13.596735476696	7.3316116333008	265.46984863281
-13.562486772725	9.7674446105957	265.37460327148
-13.528238068753	12.563156127930	265.28433227539
-13.493989364782	15.472631454468	265.19561767578
-13.459740660810	18.459037780762	265.10360717773
-13.425491956838	21.760116577148	264.99829101562
-13.391243252867	25.061285018921	264.89294433594
-13.356994548895	28.545860290527	264.76617431641
-13.322745844924	32.136688232422	264.62698364258
-13.288497140952	35.739864349365	264.48468017578
-13.254248436981	39.505737304688	264.30130004883
-13.219999733009	43.271717071533	264.11791992188
-13.185751029038	47.065063476562	263.91021728516
-13.151502325066	50.885162353516	263.67889404297
-13.117253621095	54.705368041992	263.44757080078
-13.083004917123	58.464805603027	263.17520141602
-13.048756213152	62.220600128174	262.90036010742
-13.014507509180	65.910018920898	262.61248779297
-12.980258805209	69.490859985352	262.30340576172
-12.946010101237	73.071800231934	261.99432373047
-12.911761397266	76.430862426758	261.66790771484
-12.877512693294	79.740127563477	261.33758544922
-12.843263989323	82.961044311523	261.00549316406
-12.809015285351	85.921211242676	260.66812133789
-12.774766581379	88.881385803223	260.33078002930
-12.740517877408	91.562683105469	259.99804687500
-12.706269173436	94.118576049805	259.66738891602
-12.672020469465	96.619415283203	259.33898925781
-12.637771765493	98.740684509277	259.02606201172
-12.603523061522	100.86189270020	258.71316528320
-12.569274357550	102.73469543457	258.41314697266
-12.535025653579	104.41485595703	258.12307739258
-12.500776949607	106.09501647949	257.83303833008
-12.466528245636	107.35556030273	257.56701660156
-12.432279541664	108.61607360840	257.30099487305
-12.398030837693	109.69521331787	257.04348754883
-12.363782133721	110.57665252686	256.79525756836
-12.329533429750	111.45806884766	256.54702758789
-12.295284725778	112.02940368652	256.30654907227
-12.261036021807	112.58674621582	256.06643676758
-12.226787317835	113.03215026855	255.82331848145
-12.192538613864	113.33233642578	255.57635498047
-12.158289909892	113.63252258301	255.32937622070
-12.124041205920	113.76660156250	255.05993652344
-12.089792501949	113.88500976562	254.78836059570
-12.055543797977	113.96305084229	254.50007629395
-12.021295094006	113.97854614258	254.18586730957
